# source: CoolProp (http://www.coolprop.org/)
# temperature in Kelvin, nominal density in kg/Nm^3 at 1.01325 bar
263.15 0.7883176797706959
265.15 0.7823175132720274
267.15 0.7764086858132603
269.15 0.7705891091714784
271.15 0.7648567589356711
273.15 0.7592096720602627
275.15 0.7536459445317518
277.15 0.7481637291423288
279.15 0.742761233364706
281.15 0.7374367173227688
283.15 0.7321884918529732
285.15 0.7270149166517398
287.15 0.721914398504361
289.15 0.7168853895912243
291.15 0.7119263858673918
293.15 0.7070359255118169
295.15 0.7022125874426869
297.15 0.6974549899243704
299.15 0.6927617891486424
301.15 0.6881316779168388
303.15 0.6835633841304272
305.15 0.679055670907835
307.15 0.6746073333963901
309.15 0.6702171990259529
311.15 0.6658841261093711
313.15 0.6616070028247312
315.15 0.6573847462379292
317.15 0.6532163013636869
319.15 0.6491006402632528
321.15 0.6450367611771036
323.15 0.6410236876910659
325.15 0.6370604679343483
327.15 0.6331461738080604
329.15 0.62927990024286
331.15 0.6254607644844474
333.15 0.6216879054056833
335.15 0.6179604828441738
337.15 0.6142776769642169
339.15 0.6106386876420702
341.15 0.6070427338735377
343.15 0.6034890532029326
345.15 0.5999769011734114
347.15 0.5965055507927562
349.15 0.5930742920256563
351.15 0.589682431296971
353.15 0.5863292910154656
355.15 0.5830142091135528
357.15 0.5797365386029372
359.15 0.5764956471455245
361.15 0.5732909166389835
363.15 0.5701217428163711
365.15 0.5669875348592726
367.15 0.5638877150239164
369.15 0.5608217182797604
371.15 0.557788991960064
373.15 0.5547889954239786